-0.3
-0.285
-0.285
-0.28
-0.255
-0.265
-0.28
-0.26
-0.24
-0.235
-0.22
-0.225
-0.245
-0.235
-0.235
-0.23
-0.24
-0.255
-0.255
-0.26
-0.25
-0.255
-0.265
-0.25
-0.245
-0.235
-0.25
-0.265
-0.28
-0.3
-0.32
-0.335
-0.34
-0.335
-0.335
-0.355
-0.37
-0.36
-0.35
-0.33
-0.34
-0.35
-0.36
-0.35
-0.345
-0.345
-0.335
-0.355
-0.36
-0.365
-0.355
-0.35
-0.355
-0.365
-0.37
-0.36
-0.355
-0.355
-0.355
-0.375
-0.39
-0.41
-0.435
-0.46
-0.475
-0.51
-0.555
-0.56
-0.5
-0.375
-0.235
-0.085
0.105
0.39
0.66
0.865
0.92
0.82
0.505
0.1
-0.255
-0.43
-0.485
-0.465
-0.425
-0.39
-0.365
-0.37
-0.375
-0.37
-0.39
-0.38
-0.38
-0.365
-0.375
-0.38
-0.395
-0.395
-0.385
-0.375
-0.38
-0.39
-0.395
-0.4
-0.39
-0.385
-0.385
-0.395
-0.405
-0.4
-0.385
-0.38
-0.385
-0.395
-0.41
-0.41
-0.39
-0.395
-0.385
-0.395
-0.39
-0.385
-0.375
-0.37
-0.375
-0.38
-0.39
-0.39
-0.385
-0.385
-0.385
-0.38
-0.38
-0.39
-0.385
-0.375
-0.37
-0.385
-0.395
-0.395
-0.38
-0.36
-0.365
-0.375
-0.38
-0.37
-0.375
-0.37
-0.36
-0.38
-0.385
-0.385
-0.375
-0.37
-0.37
-0.38
-0.395
-0.385
-0.39
-0.375
-0.38
-0.385
-0.395
-0.4
-0.385
-0.38
-0.38
-0.39
-0.405
-0.4
-0.4
-0.375
-0.395
-0.39
-0.4
-0.39
-0.395
-0.385
-0.39
-0.4
-0.405
-0.395
-0.385
-0.37
-0.36
-0.365
-0.36
-0.355
-0.325
-0.305
-0.3
-0.3
-0.285
-0.285
-0.265
-0.25
-0.255
-0.255
-0.25
-0.255
-0.24
-0.235
-0.25
-0.245
-0.26
-0.245
-0.25
-0.235
-0.235
-0.235
-0.255
-0.27
-0.245
-0.235
-0.235
-0.25
-0.26
-0.25
-0.25
-0.24
-0.245
-0.25
-0.25
-0.255
-0.25
-0.245
-0.245
-0.26
-0.27
-0.27
-0.265
-0.255
-0.25
-0.265
-0.285
-0.275
-0.275
-0.26
-0.27
-0.275
-0.295
-0.285
-0.285
-0.28
-0.265
-0.275
-0.295
-0.28
-0.28
-0.265
-0.275
-0.275
-0.29
-0.295
-0.29
-0.29
-0.285
-0.29
-0.305
-0.3
-0.285
-0.275
-0.29
-0.29
-0.295
-0.295
-0.29
-0.27
-0.27
-0.29
-0.295
-0.29
-0.285
-0.285
-0.29
-0.285
-0.29
-0.29
-0.275
-0.28
-0.275
-0.285
-0.29
-0.285
-0.28
-0.265
-0.28
-0.28
-0.28
-0.285
-0.285
-0.285
-0.27
-0.285
-0.29
-0.28
-0.275
-0.255
-0.235
-0.23
-0.235
-0.24
-0.205
-0.205
-0.2
-0.2
-0.2
-0.19
-0.175
-0.16
-0.165
-0.165
-0.185
-0.18
-0.175
-0.18
-0.19
-0.2
-0.21
-0.2
-0.2
-0.2
-0.19
-0.175
-0.165
-0.175
-0.195
-0.205
-0.235
-0.255
-0.285
-0.295
-0.275
-0.27
-0.285
-0.285
-0.295
-0.29
-0.285
-0.27
-0.27
-0.295
-0.29
-0.295
-0.295
-0.29
-0.285
-0.295
-0.305
-0.305
-0.305
-0.305
-0.305
-0.315
-0.32
-0.325
-0.32
-0.305
-0.31
-0.33
-0.35
-0.385
-0.41
-0.435
-0.455
-0.5
-0.51
-0.455
-0.315
-0.16
0.02
0.245
0.51
0.765
0.91
0.895
0.66
0.275
-0.135
-0.385
-0.445
-0.395
-0.34
-0.325
-0.35
-0.34
-0.34
-0.315
-0.315
-0.32
-0.34
-0.33
-0.32
-0.32
-0.32
-0.335
-0.335
-0.34
-0.33
-0.33
-0.335
-0.335
-0.34
-0.34
-0.34
-0.345
-0.34
-0.345
-0.34
-0.335
-0.34
-0.33
-0.335
-0.345
-0.35
-0.35
-0.33
-0.325
-0.33
-0.345
-0.33
-0.335
-0.33
-0.325
-0.315
-0.325
-0.33
-0.335
-0.335
-0.32
-0.32
-0.33
-0.345
-0.345
-0.33
-0.325
-0.33
-0.335
-0.345
-0.34
-0.33
-0.32
-0.32
-0.33
-0.34
-0.335
-0.335
-0.32
-0.32
-0.33
-0.34
-0.345
-0.335
-0.33
-0.34
-0.35
-0.355
-0.355
-0.355
-0.35
-0.345
-0.35
-0.36
-0.36
-0.35
-0.345
-0.345
-0.355
-0.365
-0.345
-0.335
-0.335
-0.345
-0.335
-0.35
-0.345
-0.335
-0.33
-0.33
-0.335
-0.335
-0.32
-0.305
-0.295
-0.3
-0.29
-0.275
-0.285
-0.275
-0.255
-0.255
-0.26
-0.26
-0.26
-0.255
-0.25
-0.245
-0.235
-0.24
-0.25
-0.215
-0.215
-0.22
-0.225
-0.235
-0.245
-0.245
-0.235
-0.255
-0.255
-0.25
-0.255
-0.245
-0.23
-0.24
-0.25
-0.265
-0.265
-0.265
-0.245
-0.255
-0.27
-0.265
-0.265
-0.255
-0.25
-0.265
-0.26
-0.26
-0.265
-0.26
-0.26
-0.26
-0.265
-0.29
-0.28
-0.265
-0.255
-0.27
-0.27
-0.28
-0.285
-0.275
-0.26
-0.27
-0.275
-0.29
-0.29
-0.275
-0.27
-0.275
-0.28
-0.29
-0.295
-0.285
-0.27
-0.275
-0.275
-0.285
-0.285
-0.285
-0.265
-0.28
-0.29
-0.3
-0.295
-0.285
-0.27
-0.275
-0.28
-0.28
-0.285
-0.29
-0.27
-0.27
-0.275
-0.275
-0.27
-0.27
-0.26
-0.26
-0.265
-0.265
-0.28
-0.275
-0.24
-0.255
-0.245
-0.235
-0.23
-0.225
-0.21
-0.21
-0.21
-0.215
-0.215
-0.185
-0.175
-0.17
-0.165
-0.165
-0.18
-0.175
-0.17
-0.18
-0.19
-0.2
-0.205
-0.2
-0.18
-0.185
-0.18
-0.205
-0.21
-0.21
-0.19
-0.18
-0.16
-0.185
-0.205
-0.23
-0.23
-0.26
-0.27
-0.3
-0.315
-0.31
-0.3
-0.3
-0.31
-0.315
-0.325
-0.31
-0.3
-0.32
-0.315
-0.34
-0.315
-0.315
-0.305
-0.3
-0.32
-0.32
-0.34
-0.325
-0.325
-0.325
-0.335
-0.345
-0.36
-0.395
-0.42
-0.44
-0.48
-0.525
-0.56
-0.51
-0.41
-0.285
-0.13
0.07
0.335
0.615
0.775
0.815
0.725
0.45
0.075
-0.24
-0.405
-0.465
-0.46
-0.43
-0.395
-0.365
-0.345
-0.355
-0.375
-0.37
-0.38
-0.365
-0.37
-0.35
-0.365
-0.37
-0.375
-0.38
-0.375
-0.37
-0.375
-0.385
-0.39
-0.37
-0.345
-0.355
-0.37
-0.375
-0.375
-0.375
-0.355
-0.37
-0.375
-0.38
-0.37
-0.37
-0.365
-0.37
-0.37
-0.36
-0.365
-0.36
-0.365
-0.38
-0.375
-0.375
-0.38
-0.375
-0.37
-0.37
-0.365
-0.37
-0.375
-0.365
-0.355
-0.355
-0.36
-0.365
-0.385
-0.365
-0.36
-0.36
-0.36
-0.37
-0.375
-0.355
-0.355
-0.345
-0.355
-0.37
-0.38
-0.365
-0.37
-0.365
-0.365
-0.385
-0.39
-0.385
-0.38
-0.38
-0.385
-0.395
-0.38
-0.38
-0.375
-0.375
-0.39
-0.4
-0.41
-0.4
-0.395
-0.375
-0.4
-0.415
-0.415
-0.41
-0.4
-0.4
-0.4
-0.39
-0.385
-0.365
-0.355
-0.35
-0.35
-0.345
-0.34
-0.34
-0.32
-0.325
-0.325
-0.33
-0.315
-0.3
-0.285
-0.295
-0.295
-0.305
-0.315
-0.31
-0.31
-0.31
-0.31
-0.315
-0.315
-0.315
-0.3
-0.315
-0.305
-0.31
-0.325
-0.31
-0.3
-0.305
-0.31
-0.32
-0.33
-0.315
-0.3
-0.31
-0.325
-0.34
-0.335
-0.325
-0.325
-0.335
-0.335
-0.345
-0.335
-0.33
-0.325
-0.33
-0.345
-0.35
-0.365
-0.34
-0.34
-0.335
-0.355
-0.34
-0.37
-0.365
-0.355
-0.36
-0.37
-0.37
-0.375
-0.355
-0.35
-0.36
-0.365
-0.375
-0.38
-0.37
-0.36
-0.36
-0.36
-0.37
-0.37
-0.355
-0.36
-0.37
-0.375
-0.395
-0.395
-0.37
-0.355
-0.355
-0.36
-0.38
-0.375
-0.37
-0.35
-0.365
-0.37
-0.375
-0.375
-0.37
-0.35
-0.345
-0.345
-0.35
-0.355
-0.34
-0.335
-0.32
-0.31
-0.31
-0.325
-0.305
-0.3
-0.3
-0.29
-0.29
-0.3
-0.29
-0.27
-0.27
-0.265
-0.28
-0.28
-0.27
-0.27
-0.28
-0.265
-0.275
-0.295
-0.305
-0.29
-0.27
-0.26
-0.27
-0.3
-0.32
-0.32
-0.34
-0.365
-0.39
-0.4
-0.395
-0.38
-0.405
-0.4
-0.41
-0.41
-0.395
-0.385
-0.38
-0.39
-0.4
-0.405
-0.395
-0.39
-0.385
-0.4
-0.415
-0.415
-0.4
-0.4
-0.395
-0.395
-0.405
-0.405
-0.4
-0.4
-0.405
-0.435
-0.455
-0.49
-0.505
-0.515
-0.56
-0.585
-0.565
-0.475
-0.345
-0.19
0.015
0.265
0.52
0.715
0.805
0.74
0.46
0.08
-0.27
-0.465
-0.54
-0.53
-0.505
-0.48
-0.47
-0.47
-0.46
-0.445
-0.43
-0.44
-0.455
-0.45
-0.445
-0.425
-0.435
-0.445
-0.435
-0.45
-0.425
-0.42
-0.43
-0.44
-0.445
-0.455
-0.44
-0.43
-0.42
-0.435
-0.455
-0.46
-0.43
-0.44
-0.435
-0.44
-0.45
-0.445
-0.44
-0.445
-0.445
-0.445
-0.445
-0.465
-0.44
-0.445
-0.435
-0.435
-0.44
-0.445
-0.44
-0.435
-0.445
-0.445
-0.455
-0.45
-0.455
-0.44
-0.45
-0.445
-0.435
-0.455
-0.445
-0.43
-0.425
-0.435
-0.45
-0.455
-0.45
-0.43
-0.435
-0.44
-0.455
-0.47
-0.455
-0.45
-0.45
-0.455
-0.465
-0.48
-0.475
-0.465
-0.48
-0.5
-0.505
-0.505
-0.505
-0.49
-0.49
-0.49
-0.5
-0.505
-0.495
-0.485
-0.47
-0.465
-0.465
-0.465
-0.45
-0.44
-0.42
-0.425
-0.425
-0.41
-0.405
-0.385
-0.375
-0.38
-0.365
-0.365
-0.35
-0.325
-0.34
-0.335
-0.35
-0.345
-0.34
-0.325
-0.325
-0.33
-0.325
-0.33
-0.325
-0.305
-0.32
-0.32
-0.335
-0.34
-0.335
-0.33
-0.335
-0.34
-0.34
-0.345
-0.34
-0.32
-0.335
-0.335
-0.34
-0.34
-0.33
-0.325
-0.345
-0.335
-0.34
-0.345
-0.34
-0.33
-0.335
-0.34
-0.35
-0.365
-0.35
-0.335
-0.35
-0.35
-0.355
-0.355
-0.355
-0.34
-0.345
-0.35
-0.36
-0.345
-0.355
-0.34
-0.35
-0.345
-0.36
-0.36
-0.345
-0.34
-0.345
-0.345
-0.355
-0.36
-0.355
-0.32
-0.34
-0.34
-0.345
-0.35
-0.34
-0.335
-0.325
-0.345
-0.34
-0.35
-0.34
-0.315
-0.33
-0.34
-0.34
-0.34
-0.325
-0.32
-0.32
-0.315
-0.305
-0.285
-0.27
-0.26
-0.26
-0.265
-0.275
-0.265
-0.24
-0.23
-0.22
-0.23
-0.23
-0.235
-0.215
-0.22
-0.23
-0.23
-0.245
-0.255
-0.25
-0.235
-0.235
-0.235
-0.245
-0.26
-0.255
-0.225
-0.22
-0.205
-0.23
-0.265
-0.28
-0.29
-0.29
-0.305
-0.33
-0.335
-0.335
-0.33
-0.32
-0.335
-0.33
-0.345
-0.34
-0.34
-0.335
-0.34
-0.355
-0.35
-0.34
-0.33
-0.35
-0.345
-0.35
-0.36
-0.355
-0.34
-0.335
-0.355
-0.375
-0.41
-0.445
-0.45
-0.475
-0.52
-0.545
-0.55
-0.465
-0.35
-0.23
-0.135
-0.01
0.145
0.36
0.565
0.74
0.865
0.95
1.02
1.005
0.845
0.5
0.065
-0.285
-0.47
-0.48
-0.425
-0.37
-0.37
-0.385
-0.395
-0.375
-0.365
-0.365
-0.38
-0.395
-0.395
-0.4
-0.37
-0.38
-0.39
-0.395
-0.41
-0.4
-0.385
-0.39
-0.4
-0.405
-0.41
-0.4
-0.395
-0.39
-0.395
-0.395
-0.405
-0.395
-0.385
-0.39
-0.385
-0.4
-0.41
-0.4
-0.37
-0.375
-0.38
-0.385
-0.385
-0.38
-0.38
-0.375
-0.395
-0.395
-0.395
-0.38
-0.375
-0.365
-0.38
-0.395
-0.395
-0.39
-0.38
-0.38
-0.385
-0.395
-0.4
-0.39
-0.385
-0.38
-0.4
-0.395
-0.395
-0.38
-0.38
-0.38
-0.385
-0.405
-0.395
-0.4
-0.385
-0.39
-0.4
-0.41
-0.41
-0.405
-0.41
-0.4
-0.405
-0.42
-0.415
-0.4
-0.39
-0.4
-0.4
-0.405
-0.39
-0.39
-0.375
-0.355
-0.36
-0.365
-0.365
-0.335
-0.32
-0.32
-0.305
-0.315
-0.305
-0.3
-0.29
-0.285
-0.29
-0.3
-0.3
-0.295
-0.285
-0.275
-0.29
-0.285
-0.285
-0.28
-0.27
-0.27
-0.285
-0.295
-0.295
-0.28
-0.285
-0.295
-0.29
-0.295
-0.305
-0.31
-0.29
-0.28
-0.305
-0.305
-0.305
-0.295
-0.305
-0.295
-0.3
-0.305
-0.315
-0.305
-0.295
-0.305
-0.3
-0.315
-0.325
-0.3
-0.315
-0.305
-0.31
-0.325
-0.335
-0.315
-0.315
-0.325
-0.325
-0.335
-0.335
-0.32
-0.325
-0.31
-0.325
-0.345
-0.345
-0.34
-0.32
-0.325
-0.335
-0.35
-0.34
-0.34
-0.33
-0.325
-0.33
-0.345
-0.345
-0.335
-0.32
-0.325
-0.33
-0.345
-0.35
-0.335
-0.32
-0.325
-0.325
-0.335
-0.345
-0.32
-0.32
-0.32
-0.35
-0.345
-0.335
-0.32
-0.315
-0.295
-0.3
-0.285
-0.28
-0.26
-0.25
-0.245
-0.255
-0.25
-0.255
-0.235
-0.225
-0.215
-0.22
-0.225
-0.245
-0.225
-0.22
-0.225
-0.235
-0.255
-0.26
-0.24
-0.235
-0.235
-0.25
-0.26
-0.27
-0.245
-0.22
-0.205
-0.225
-0.25
-0.28
-0.28
-0.295
-0.305
-0.32
-0.345
-0.35
-0.35
-0.34
-0.34
-0.35
-0.35
-0.355
-0.355
-0.355
-0.36
-0.355
-0.365
-0.37
-0.365
-0.365
-0.36
-0.365
-0.36
-0.365
-0.36
-0.36
-0.37
-0.395
-0.445
-0.485
-0.495
-0.52
-0.55
-0.555
-0.475
-0.355
-0.185
-0.015
0.25
0.535
0.765
0.875
0.89
0.71
0.33
-0.08
-0.375
-0.51
-0.51
-0.47
-0.425
-0.395
-0.385
-0.39
-0.395
-0.395
-0.385
-0.38
-0.385
-0.4
-0.395
-0.38
-0.39
-0.395
-0.415
-0.41
-0.405
-0.395
-0.395
-0.41
-0.415
-0.4
-0.405
-0.395
-0.395
-0.4
-0.41
-0.425
-0.39
-0.39
-0.39
-0.39
-0.395
-0.4
-0.39
-0.375
-0.385
-0.395
-0.385
-0.4
-0.375
-0.38
-0.385
-0.38
-0.395
-0.405
-0.395
-0.385
-0.39
-0.38
-0.39
-0.4
-0.395
-0.385
-0.39
-0.39
-0.4
-0.4
-0.385
-0.38
-0.39
-0.39
-0.395
-0.385
-0.39
-0.38
-0.375
-0.385
-0.4
-0.395
-0.39
-0.38
-0.385
-0.39
-0.395
-0.405
-0.395
-0.39
-0.395
-0.395
-0.415
-0.41
-0.4
-0.415
-0.4
-0.405
-0.41
-0.42
-0.4
-0.39
-0.39
-0.395
-0.395
-0.405
-0.375
-0.37
-0.36
-0.36
-0.365
-0.355
-0.34
-0.325
-0.32
-0.315
-0.32
-0.32
-0.305
-0.295
-0.295
-0.3
-0.31
-0.305
-0.295
-0.29
-0.29
-0.295
-0.3
-0.29
-0.29
-0.29
-0.285
-0.295
-0.305
-0.305
-0.285
-0.285
-0.285
-0.285
-0.295
-0.305
-0.3
-0.295
-0.295
-0.31
-0.32
-0.315
-0.31
-0.305
-0.305
-0.32
-0.32
-0.32
-0.315
-0.3
-0.3
-0.31
-0.315
-0.315
-0.315
-0.315
-0.3
-0.315
-0.31
-0.325
-0.325
-0.315
-0.315
-0.32
-0.325
-0.335
-0.33
-0.325
-0.325
-0.34
-0.335
-0.345
-0.33
-0.32
-0.33
-0.335
-0.34
-0.345
-0.325
-0.335
-0.325
-0.33
-0.335
-0.34
-0.335
-0.325
-0.33
-0.33
-0.34
-0.335
-0.325
-0.315
-0.34
-0.345
-0.34
-0.34
-0.33
-0.32
-0.315
-0.315
-0.335
-0.33
-0.32
-0.305
-0.315
-0.33
-0.33
-0.34
-0.325
-0.32
-0.315
-0.31
-0.32
-0.325
-0.295
-0.28
-0.28
-0.27
-0.275
-0.28
-0.265
-0.26
-0.245
-0.24
-0.24
-0.24
-0.2
-0.19
-0.2
-0.21
-0.225
-0.24
-0.235
-0.23
-0.22
-0.22
-0.24
-0.24
-0.245
-0.24
-0.23
-0.21
-0.205
-0.205
-0.22
-0.225
-0.255
-0.27
-0.285
-0.295
-0.3
-0.305
-0.31
-0.32
-0.33
-0.345
-0.35
-0.345
-0.34
-0.335
-0.35
-0.35
-0.35
-0.34
-0.35
-0.365
-0.37
-0.375
-0.36
-0.36
-0.355
-0.36
-0.37
-0.37
-0.36
-0.35
-0.35
-0.37
-0.385
-0.42
-0.445
-0.465
-0.475
-0.5
-0.555
-0.59
-0.535
-0.445
-0.335
-0.215
-0.04
0.21
0.475
0.675
0.78
0.775
0.625
0.33
-0.01
-0.275
-0.44
-0.5
-0.485
-0.435
-0.395
-0.38
-0.385
-0.375
-0.39
-0.405
-0.385
-0.38
-0.385
-0.395
-0.395
-0.385
-0.395
-0.39
-0.39
-0.4
-0.405
-0.415
-0.4
-0.395
-0.395
-0.405
-0.41
-0.415
-0.4
-0.395
-0.39
-0.395
-0.41
-0.42
-0.4
-0.395
-0.395
-0.395
-0.4
-0.405
-0.405
-0.39
-0.395
-0.395
-0.395
-0.405
-0.4
-0.4
-0.4
-0.4
-0.415
-0.41
-0.41
-0.395
-0.39
-0.405
-0.39
-0.4
-0.385
-0.395
-0.385
-0.39
-0.395
-0.395
-0.38
-0.385
-0.385
-0.39
-0.385
-0.385
-0.36
-0.36
-0.36
-0.35
-0.355
-0.35
-0.34
-0.325
-0.32
-0.32
-0.32
-0.32
-0.29
-0.28
-0.265
-0.27
-0.275
-0.285
-0.29
-0.28
-0.27
-0.29
-0.28
-0.285
-0.25
-0.24
-0.265
-0.3
-0.315
-0.335
-0.33
-0.345
-0.35
-0.365
-0.395
-0.415
-0.405
-0.4
-0.38
-0.39
-0.39
-0.395
-0.385
-0.37
-0.355
-0.37
-0.375
-0.37
-0.355
-0.35
-0.34
-0.345
-0.345
-0.35
-0.33
-0.34
-0.345
-0.335
-0.345
-0.345
-0.35
-0.34
-0.35
-0.36
-0.37
-0.375
-0.355
-0.35
-0.35
-0.35
-0.35
-0.36
-0.345
-0.345
-0.35
-0.355
-0.365
-0.37
-0.365
-0.35
-0.36
-0.36
-0.375
-0.37
-0.365
-0.355
-0.34
-0.355
-0.375
-0.38
-0.37
-0.36
-0.34
-0.355
-0.355
-0.37
-0.365
-0.36
-0.385
-0.4
-0.425
-0.42
-0.415
-0.41
-0.4
-0.31
-0.165
0.025
0.225
0.405
0.635
0.87
1.015
0.995
0.735
0.29
-0.15
-0.42
-0.52
-0.49
-0.42
-0.375
-0.365
-0.37
-0.37
-0.38
-0.36
-0.35
-0.345
-0.36
-0.36
-0.365
-0.36
-0.36
-0.35
-0.36
-0.365
-0.37
-0.36
-0.355
-0.36
-0.35
-0.36
-0.375
-0.365
-0.355
-0.36
-0.37
-0.365
-0.38
-0.38
-0.36
-0.355
-0.365
-0.36
-0.38
-0.36
-0.35
-0.35
-0.35
-0.355
-0.355
-0.355
-0.34
-0.325
-0.335
-0.35
-0.35
-0.345
-0.34
-0.335
-0.345
-0.35
-0.35
-0.35
-0.345
-0.355
-0.355
-0.36
-0.355
-0.355
-0.34
-0.34
-0.34
-0.345
-0.355
-0.345
-0.335
-0.335
-0.34
-0.345
-0.35
-0.33
-0.33
-0.345
-0.325
-0.35
-0.37
-0.355
-0.36
-0.37
-0.385
-0.4
-0.4
-0.39
-0.385
-0.39
-0.4
-0.41
-0.42
-0.415
-0.405
-0.415
-0.43
-0.43
-0.43
-0.42
-0.405
-0.4
-0.41
-0.41
-0.41
-0.39
-0.37
-0.365
-0.385
-0.38
-0.375
-0.365
-0.365
-0.365
-0.355
-0.355
-0.35
-0.345
-0.345
-0.335
-0.34
-0.34
-0.345
-0.335
-0.335
-0.335
-0.33
-0.34
-0.34
-0.34
-0.33
-0.32
-0.32
-0.335
-0.35
-0.34
-0.33
-0.335
-0.325
-0.325
-0.345
-0.34
-0.32
-0.325
-0.325
-0.335
-0.345
-0.335
-0.325
-0.325
-0.325
-0.335
-0.34
-0.34
-0.33
-0.33
-0.33
-0.34
-0.345
-0.345
-0.32
-0.335
-0.335
-0.34
-0.34
-0.34
-0.33
-0.33
-0.345
-0.355
-0.35
-0.345
-0.34
-0.325
-0.33
-0.33
-0.34
-0.335
-0.335
-0.335
-0.33
-0.34
-0.36
-0.34
-0.34
-0.335
-0.34
-0.345
-0.35
-0.35
-0.335
-0.33
-0.325
-0.34
-0.36
-0.345
-0.33
-0.325
-0.325
-0.35
-0.35
-0.335
-0.325
-0.34
-0.325
-0.335
-0.335
-0.34
-0.335
-0.325
-0.325
-0.335
-0.34
-0.335
-0.325
-0.325
-0.335
-0.335
-0.35
-0.34
-0.33
-0.33
-0.32
-0.335
-0.345
-0.325
-0.315
-0.325
-0.33
-0.335
-0.335
-0.33
-0.315
-0.31
-0.315
-0.33
-0.335
-0.335
-0.32
-0.33
-0.34
-0.33
-0.33
-0.31
-0.315
-0.32
-0.32
-0.33
-0.325
-0.31
-0.305
-0.285
-0.275
-0.28
-0.29
-0.265
-0.25
-0.25
-0.255
-0.255
-0.255
-0.255
-0.24
-0.235
-0.225
-0.24
-0.25
-0.225
-0.215
-0.215
-0.23
-0.235
-0.235
-0.235
-0.235
-0.23
-0.235
-0.235
-0.24
-0.235
-0.235
-0.215
-0.215
-0.21
-0.235
-0.245
-0.265
-0.265
-0.29
-0.315
-0.325
-0.315
-0.32
-0.32
-0.325
-0.335
-0.325
-0.325
-0.325
-0.315
-0.315
-0.33
-0.33
-0.33
-0.33
-0.325
-0.335
-0.335
-0.33
-0.315
-0.31
-0.31
-0.31
-0.315
-0.33
-0.335
-0.33
-0.35
-0.385
-0.43
-0.445
-0.455
-0.465
-0.49
-0.515
-0.49
-0.43
-0.275
-0.155
0.01
0.24
0.5
0.725
0.88
0.91
0.73
0.39
-0.005
-0.305
-0.43
-0.455
-0.435
-0.395
-0.365
-0.36
-0.355
-0.35
-0.35
-0.355
-0.365
-0.38
-0.37
-0.365
-0.365
-0.37
-0.385
-0.38
-0.375
-0.37
-0.365
-0.37
-0.37
-0.375
-0.37
-0.365
-0.35
-0.36
-0.36
-0.375
-0.365
-0.355
-0.355
-0.375
-0.375
-0.375
-0.36
-0.35
-0.355
-0.355
-0.365
-0.375
-0.365
-0.37
-0.37
-0.37
-0.38
-0.375
-0.365
-0.36
-0.35
-0.36
-0.365
-0.37
-0.35
-0.355
-0.35
-0.36
-0.365
-0.37
-0.36
-0.36
-0.35
-0.355
-0.365
-0.38
-0.38
-0.375
-0.37
-0.37
-0.375
-0.37
-0.365
-0.355
-0.35
-0.36
-0.37
-0.375
-0.375
-0.37
-0.37
-0.395
-0.4
-0.41
-0.4
-0.41
-0.405
-0.41
-0.42
-0.43
-0.42
-0.41
-0.4
-0.41
-0.405
-0.4
-0.4
-0.38
-0.375
-0.375
-0.36
-0.355
-0.34
-0.315
-0.305
-0.3
-0.28
-0.285
-0.27
-0.275
-0.265
-0.255
-0.26
-0.26
-0.25
-0.245
-0.235
-0.24
-0.25
-0.245
-0.245
-0.255
-0.235
-0.25
-0.25
-0.255
-0.245
-0.24
-0.235
-0.235
-0.245
-0.255
-0.245
-0.255
-0.235
-0.245
-0.26
-0.265
-0.255
-0.255
-0.255
-0.25
-0.27
-0.265
-0.265
-0.255
-0.255
-0.265
-0.265
-0.26
-0.26
-0.255
-0.265
-0.275
-0.29
-0.285
-0.28
-0.275
-0.27
-0.285
-0.285
-0.29
-0.29
-0.285
-0.28
-0.28
-0.295
-0.305
-0.29
-0.285
-0.28
-0.3
-0.305
-0.3
-0.3
-0.285
-0.285
-0.295
-0.3
-0.31
-0.305
-0.31
-0.305
-0.315
-0.315
-0.32
-0.31
-0.3
-0.31
-0.315
-0.31
-0.33
-0.31
-0.31
-0.305
-0.315
-0.315
-0.32
-0.31
-0.305
-0.29
-0.295
-0.295
-0.3
-0.31
-0.3
-0.295
-0.3
-0.305
-0.32
-0.31
-0.305
-0.3
-0.305
-0.315
-0.305
-0.285
-0.275
-0.26
-0.26
-0.255
-0.255
-0.245
-0.245
-0.24
-0.23
-0.22
-0.235
-0.22
-0.205
-0.18
-0.185
-0.205
-0.205
-0.205
-0.21
-0.21
-0.215
-0.23
-0.23
-0.215
-0.2
-0.21
-0.23
-0.245
-0.245
-0.22
-0.2
-0.19
-0.21
-0.235
-0.26
-0.27
-0.265
-0.29
-0.305
-0.315
-0.33
-0.325
-0.335
-0.315
-0.315
-0.335
-0.34
-0.335
-0.325
-0.32
-0.32
-0.34
-0.35
-0.33
-0.335
-0.32
-0.345
-0.35
-0.355
-0.34
-0.345
-0.335
-0.345
-0.365
-0.41
-0.435
-0.46
-0.48
-0.51
-0.56
-0.58
-0.505
-0.385
-0.275
-0.175
-0.075
0.065
0.275
0.495
0.705
0.86
0.94
0.94
0.795
0.505
0.14
-0.21
-0.415
-0.49
-0.48
-0.44
-0.42
-0.38
-0.39
-0.405
-0.385
-0.375
-0.38
-0.385
-0.395
-0.41
-0.395
-0.4
-0.395
-0.39
-0.39
-0.395
-0.39
-0.38
-0.395
-0.395
-0.39
-0.405
-0.39
-0.39
-0.39
-0.39
-0.4
-0.4
-0.395
-0.395
-0.385
-0.39
-0.405
-0.405
-0.405
-0.39
-0.39
-0.39
-0.4
-0.39
-0.4
-0.385
-0.375
-0.38
-0.39
-0.395
-0.395
-0.39
-0.38
-0.38
-0.395
-0.39
-0.385
-0.38
-0.38
-0.38
-0.4
-0.405
-0.4
-0.39
-0.395
-0.39
-0.395
-0.395
-0.385
-0.385
-0.385
-0.39
-0.4
-0.4
-0.395
-0.375
-0.385
-0.39
-0.405
-0.405
-0.395
-0.395
-0.395
-0.39
-0.405
-0.42
-0.405
-0.415
-0.41
-0.4
-0.405
-0.415
-0.42
-0.4
-0.39
-0.39
-0.39
-0.37
-0.365
-0.34
-0.335
-0.32
-0.32
-0.325
-0.305
-0.295
-0.285
-0.295
-0.305
-0.31
-0.305
-0.29
-0.295
-0.3
-0.3
-0.315
-0.295
-0.285
-0.29
-0.295
-0.3
-0.305
-0.305
-0.285
-0.275
-0.28
-0.3
-0.31
-0.295
-0.29
-0.295
-0.295
-0.3
-0.315
-0.305
-0.31
-0.3
-0.31
-0.32
-0.33
-0.32
-0.31
-0.315
-0.32
-0.325
-0.33
-0.33
-0.33
-0.325
-0.335
-0.335
-0.34
-0.345
-0.33
-0.325
-0.335
-0.35
-0.36
-0.355
-0.36
-0.37
-0.365
-0.365
-0.37
-0.365
-0.365
-0.355
-0.35
-0.355
-0.36
-0.35
-0.345
-0.335
-0.345
-0.35
-0.37
-0.365
-0.345
-0.34
-0.35
-0.355
-0.365
-0.365
-0.365
-0.365
-0.35
-0.36
-0.36
-0.35
-0.345
-0.35
-0.36
-0.36
-0.36
-0.35
-0.355
-0.35
-0.355
-0.36
-0.36
-0.345
-0.33
-0.33
-0.34
-0.35
-0.365
-0.35
-0.335
-0.325
-0.325
-0.325
-0.315
-0.29
-0.28
-0.27
-0.28
-0.275
-0.275
-0.26
-0.255
-0.23
-0.235
-0.24
-0.24
-0.245
-0.235
-0.24
-0.25
-0.25
-0.28
-0.265
-0.265
-0.265
-0.25
-0.275
-0.28
-0.285
-0.275
-0.255
-0.235
-0.235
-0.265
-0.28
-0.295
-0.3
-0.32
-0.345
-0.36
-0.36
-0.37
-0.355
-0.365
-0.375
-0.385
-0.37
-0.36
-0.37
-0.38
-0.39
-0.395
-0.39
-0.38
-0.375
-0.38
-0.39
-0.4
-0.395
-0.39
-0.385
-0.385
-0.41
-0.44
-0.475
-0.5
-0.51
-0.54
-0.605
-0.645
-0.635
-0.565
-0.49
-0.39
-0.31
-0.195
-0.01
0.245
0.5
0.68
0.78
0.78
0.65
0.35
-0.02
-0.34
-0.51
-0.535
-0.495
-0.45
-0.42
-0.445
-0.44
-0.435
-0.43
-0.42
-0.415
-0.425
-0.445
-0.445
-0.45
-0.44
-0.44
-0.445
-0.455
-0.46
-0.455
-0.445
-0.45
-0.445
-0.45
-0.445
-0.445
-0.445
-0.445
-0.435
-0.445
-0.45
-0.45
-0.42
-0.42
-0.425
-0.45
-0.445
-0.45
-0.44
-0.43
-0.44
-0.45
-0.455
-0.45
-0.44
-0.44
-0.455
-0.465
-0.47
-0.455
-0.45
-0.445
-0.45
-0.46
-0.455
-0.45
-0.445
-0.435
-0.45
-0.445
-0.45
-0.43
-0.435
-0.425
-0.435
-0.445
-0.455
-0.435
-0.44
-0.44
-0.445
-0.445
-0.465
-0.47
-0.46
-0.45
-0.455
-0.47
-0.49
-0.5
-0.48
-0.475
-0.48
-0.49
-0.49
-0.495
-0.48
-0.485
-0.485
-0.49
-0.49
-0.47
-0.46
-0.455
-0.44
-0.455
-0.435
-0.42
-0.4
-0.4
-0.385
-0.395
-0.395
-0.39
-0.37
-0.375
-0.365
-0.365
-0.37
-0.355
-0.35
-0.35
-0.355
-0.36
-0.375
-0.375
-0.375
-0.355
-0.36
-0.375
-0.37
-0.36
-0.36
-0.365
-0.365
-0.37
-0.38
-0.385
-0.395
-0.39
-0.385
-0.385
-0.395
-0.385
-0.375
-0.37
-0.38
-0.39
-0.395
-0.4
-0.375
-0.375
-0.37
-0.385
-0.4
-0.41
-0.4
-0.39
-0.415
-0.42
-0.425
-0.425
-0.415
-0.41
-0.415
-0.425
-0.43
-0.43
-0.42
-0.41
-0.395
-0.405
-0.415
-0.41
-0.41
-0.41
-0.41
-0.42
-0.42
-0.42
-0.405
-0.4
-0.41
-0.43
-0.425
-0.43
-0.43
-0.41
-0.42
-0.42
-0.425
-0.42
-0.41
-0.41
-0.405
-0.405
-0.41
-0.41
-0.41
-0.405
-0.42
-0.425
-0.425
-0.42
-0.41
-0.4
-0.4
-0.395
-0.375
-0.36
-0.35
-0.34
-0.34
-0.34
-0.345
-0.33
-0.32
-0.315
-0.32
-0.315
-0.32
-0.345
-0.33
-0.325
-0.315
-0.33
-0.345
-0.33
-0.34
-0.37
-0.37
-0.365
-0.365
-0.335
-0.31
-0.295
-0.32
-0.345
-0.385
-0.39
-0.395
-0.405
-0.425
-0.425
-0.435
-0.445
-0.435
-0.43
-0.435
-0.445
-0.45
-0.465
-0.45
-0.435
-0.445
-0.46
-0.46
-0.47
-0.46
-0.465
-0.465
-0.465
-0.47
-0.465
-0.46
-0.455
-0.45
-0.47
-0.5
-0.535
-0.545
-0.56
-0.6
-0.64
-0.65
-0.58
-0.455
-0.315
-0.14
0.1
0.355
0.61
0.765
0.8
0.67
0.37
-0.005
-0.31
-0.48
-0.56
-0.59
-0.58
-0.545
-0.51
-0.485
-0.495
-0.495
-0.495
-0.5
-0.49
-0.48
-0.485
-0.49
-0.505
-0.515
-0.51
-0.5
-0.5
-0.495
-0.505
-0.515
-0.505
-0.49
-0.495
-0.49
-0.505
-0.515
-0.51
-0.485
-0.49
-0.49
-0.49
-0.5
-0.505
-0.49
-0.48
-0.5
-0.5
-0.51
-0.5
-0.49
-0.49
-0.49
-0.5
-0.5
-0.505
-0.495
-0.495
-0.49
-0.485
-0.495
-0.49
-0.48
-0.475
-0.475
-0.48
-0.49
-0.49
-0.485
-0.48
-0.485
-0.485
-0.495
-0.5
-0.475
-0.475
-0.485
-0.495
-0.495
-0.485
-0.485
-0.485
-0.49
-0.495
-0.51
-0.49
-0.48
-0.475
-0.475
-0.485
-0.5
-0.51
-0.505
-0.51
-0.51
-0.515
-0.53
-0.525
-0.52
-0.52
-0.525
-0.535
-0.55
-0.535
-0.51
-0.495
-0.49
-0.495
-0.485
-0.455
-0.435
-0.43
-0.42
-0.41
-0.41
-0.385
-0.37
-0.355
-0.355
-0.355
-0.365
-0.355
-0.345
-0.335
-0.34
-0.35
-0.355
-0.35
-0.34
-0.34
-0.34
-0.355
-0.355
-0.355
-0.35
-0.34
-0.345
-0.355
-0.35
-0.345
-0.35
-0.35
-0.345
-0.34
-0.35
-0.335
-0.34
-0.34
-0.345
-0.34
-0.35
-0.35
-0.335
-0.34
-0.35
-0.36
-0.37
-0.36
-0.35
-0.35
-0.35
-0.365
-0.37
-0.365
-0.36
-0.355
-0.365
-0.37
-0.38
-0.375
-0.35
-0.36
-0.365
-0.37
-0.375
-0.365
-0.365
-0.365
-0.365
-0.375
-0.375
-0.375
-0.37
-0.375
-0.385
-0.39
-0.385
-0.375
-0.37
-0.36
-0.37
-0.365
-0.375
-0.36
-0.355
-0.35
-0.37
-0.365
-0.38
-0.375
-0.365
-0.36
-0.355
-0.36
-0.365
-0.355
-0.335
-0.33
-0.34
-0.35
-0.355
-0.355
-0.345
-0.34
-0.345
-0.345
-0.355
-0.345
-0.325
-0.315
-0.3
-0.295
-0.3
-0.29
-0.275
-0.265
-0.275
-0.26
-0.26
-0.25
-0.235
-0.235
-0.24
-0.24
-0.26
-0.255
-0.25
-0.24
-0.27
-0.27
-0.27
-0.27
-0.275
-0.265
-0.265
-0.24
-0.25
-0.26
-0.27
-0.275
-0.295
-0.32
-0.34
-0.34
-0.345
-0.34
-0.35
-0.355
-0.36
-0.36
-0.36
-0.35
-0.365
-0.365
-0.37
-0.37
-0.35
-0.35
-0.355
-0.36
-0.365
-0.38
-0.36
-0.36
-0.365
-0.38
-0.385
-0.375
-0.365
-0.37
-0.37
-0.375
-0.39
-0.425
-0.455
-0.47
-0.485
-0.54
-0.565
-0.535
-0.445
-0.29
-0.125
0.07
0.335
0.625
0.845
0.955
0.89
0.645
0.24
-0.165
-0.415
-0.475
-0.46
-0.42
-0.395
-0.385
-0.37
-0.38
-0.385
-0.4
-0.41
-0.405
-0.395
-0.39
-0.395
-0.395
-0.405
-0.4
-0.405
-0.4
-0.405
-0.405
-0.405
-0.4
-0.395
-0.385
-0.39
-0.395
-0.395
-0.395
-0.385
-0.375
-0.375
-0.385
-0.4
-0.395
-0.39
-0.385
-0.39
-0.385
-0.4
-0.395
-0.4
-0.38
-0.38
-0.395
-0.405
-0.39
-0.39
-0.375
-0.38
-0.38
-0.395
-0.395
-0.38
-0.38
-0.38
-0.39
-0.4
-0.395
-0.38
-0.375
-0.375
-0.39
-0.4
-0.39
-0.375
-0.38
-0.385
-0.385
-0.395
-0.395
-0.395
-0.375
-0.38
-0.39
-0.4
-0.395
-0.395
-0.39
-0.385
-0.39
-0.395
-0.395
-0.385
-0.38
-0.385
-0.39
-0.385
-0.39
-0.38
-0.38
-0.39
-0.39
-0.4
-0.39
-0.385
-0.385
-0.39
-0.395
-0.39
-0.385
-0.36
-0.355
-0.345
-0.35
-0.34
-0.33
-0.295
-0.295
-0.29
-0.305
-0.3
-0.285
-0.28
-0.26
-0.27
-0.28
-0.29
-0.285
-0.275
-0.265
-0.27
-0.27
-0.285
-0.28
-0.28
-0.26
-0.28
-0.285
-0.29
-0.285
-0.27
-0.27
-0.28
-0.28
-0.295
-0.28
-0.29
-0.285
-0.285
-0.295
-0.305
-0.295
-0.295
-0.285
-0.29
-0.3
-0.315
-0.305
-0.295
-0.29
-0.305
-0.305
-0.315
-0.315
-0.305
-0.3
-0.305
-0.32
-0.33
-0.325
-0.305
-0.305
-0.31
-0.32
-0.325
-0.32
-0.315
-0.31
-0.32
-0.315
-0.33
-0.325
-0.325
-0.32
-0.32
-0.325
-0.335
-0.33
-0.32
-0.31
-0.315
-0.325
-0.33
-0.31
-0.305
-0.305
-0.29
-0.3
-0.31
-0.31
-0.295
-0.295
-0.295
-0.295
-0.3
-0.3
-0.3
-0.29
-0.3
-0.31
-0.325
-0.31
-0.3
-0.29
-0.3
-0.29
-0.3
-0.295
-0.275
-0.255
-0.245
-0.235
-0.24
-0.235
-0.225
-0.22
-0.205
-0.2
-0.2
-0.185
-0.175
-0.18
-0.185
-0.205
-0.215
-0.22
-0.21
-0.21
-0.205
-0.235
-0.235
-0.215
-0.195
-0.17
-0.185
-0.23
-0.255
-0.26
-0.27
-0.275
-0.29
-0.305
-0.315
-0.305
-0.305
-0.3
-0.315
-0.315
-0.32
-0.325
-0.31
-0.32
-0.32
-0.325
-0.335
-0.325
-0.33
-0.315
-0.325
-0.325
-0.335
-0.335
-0.315
-0.315
-0.32
-0.325
-0.35
-0.37
-0.41
-0.425
-0.435
-0.44
-0.48
-0.525
-0.565
-0.55
-0.525
-0.48
-0.385
-0.255
-0.135
0.035
0.26
0.495
0.715
0.87
0.925
0.79
0.47
0.07
-0.27
-0.43
-0.455
-0.405
-0.345
-0.335
-0.355
-0.345
-0.34
-0.335
-0.33
-0.345
-0.355
-0.35
-0.345
-0.34
-0.34
-0.345
-0.37
-0.355
-0.35
-0.355
-0.355
-0.365
-0.365
-0.365
-0.35
-0.335
-0.335
-0.35
-0.355
-0.345
-0.335
-0.335
-0.33
-0.345
-0.35
-0.355
-0.33
-0.33
-0.335
-0.335
-0.35
-0.345
-0.345
-0.33
-0.35
-0.345
-0.35
-0.35
-0.34
-0.335
-0.34
-0.345
-0.36
-0.345
-0.335
-0.33
-0.33
-0.34
-0.345
-0.34
-0.335
-0.315
-0.315
-0.325
-0.34
-0.33
-0.33
-0.325
-0.315
-0.32
-0.34
-0.33
-0.325
-0.32
-0.32
-0.335
-0.345
-0.335
-0.325
-0.33
-0.34
-0.345
-0.35
-0.35
-0.335
-0.34
-0.345
-0.345
-0.355
-0.355
-0.345
-0.34
-0.345
-0.35
-0.36
-0.355
-0.35
-0.33
-0.33
-0.325
-0.34
-0.315
-0.3
-0.295
-0.285
-0.285
-0.285
-0.275
-0.255
-0.25
-0.245
-0.255
-0.275
-0.26
-0.24
-0.23
-0.24
-0.245
-0.25
-0.24
-0.235
-0.235
-0.245
-0.255
-0.26
-0.255
-0.25
-0.245
-0.25
-0.255
-0.265
-0.255
-0.24
-0.245
-0.25
-0.26
-0.265
-0.265
-0.265
-0.255
-0.255
-0.27
-0.27
-0.265
-0.255
-0.25
-0.255
-0.27
-0.275
-0.28
-0.28
-0.275
-0.28
-0.29
-0.3
-0.3
-0.3
-0.305
-0.3
-0.31
-0.325
-0.31
-0.3
-0.29
-0.295
-0.3
-0.325
-0.315
-0.29
-0.285
-0.295
-0.3
-0.31
-0.31
-0.305
-0.29
-0.3
-0.315
-0.345
-0.325
-0.32
-0.295
-0.31
-0.315
-0.32
-0.31
-0.31
-0.305
-0.295
-0.3
-0.295
-0.29
-0.295
-0.29
-0.3
-0.305
-0.305
-0.305
-0.28
-0.28
-0.275
-0.285
-0.31
-0.29
-0.285
-0.265
-0.255
-0.25
-0.255
-0.25
-0.245
-0.24
-0.215
-0.21
-0.225
-0.215
-0.205
-0.185
-0.175
-0.195
-0.19
-0.175
-0.18
-0.18
-0.19
-0.205
-0.215
-0.2
-0.19
-0.195
-0.215
-0.23
-0.24
-0.23
-0.205
-0.19
-0.205
-0.23
-0.26
-0.265
-0.26
-0.285
-0.305
-0.31
-0.325
-0.325
-0.33
-0.315
-0.305
-0.3
-0.32
-0.325
-0.33
-0.305
-0.31
-0.315
-0.325
-0.33
-0.32
-0.32
-0.33
-0.345
-0.345
-0.335
-0.33
-0.325
-0.33
-0.36
-0.385
-0.395
-0.42
-0.405
-0.415
-0.43
-0.51
-0.535
-0.525
-0.46
-0.365
-0.27
-0.14
0.05
0.3
0.555
0.755
0.86
0.82
0.625
0.305
-0.035
-0.275
-0.43
-0.47
-0.44
-0.4
-0.375
-0.375
-0.385
-0.395
-0.37
-0.37
-0.365
-0.365
-0.38
-0.39
-0.38
-0.37
-0.355
-0.36
-0.365
-0.37
-0.375
-0.365
-0.36
-0.355
-0.375
-0.385
-0.385
-0.375
-0.37
-0.375
-0.375
-0.38
-0.365
-0.37
-0.37
-0.355
-0.365
-0.38
-0.375
-0.37
-0.375
-0.375
-0.36
-0.385
-0.37
-0.37
-0.365
-0.355
-0.35
-0.365
-0.36
-0.36
-0.355
-0.36
-0.375
-0.385
-0.385
-0.37
-0.37
-0.365
-0.365
-0.37
-0.365
-0.36
-0.36
-0.365
-0.365
-0.38
-0.365
-0.365
-0.365
-0.365
-0.385
-0.375
-0.385
-0.375
-0.355
-0.355
-0.375
-0.385
-0.385
-0.38
-0.395
-0.405
-0.42
-0.43
-0.415
-0.405
-0.405
-0.41
-0.425
-0.415
-0.415
-0.405
-0.405
-0.41
-0.425
-0.43
-0.425
-0.42
-0.405
-0.39
-0.38
-0.375
-0.365
-0.35
-0.335
-0.34
-0.33
-0.335
-0.335
-0.31
-0.295
-0.29
-0.295
-0.29
-0.275
-0.27
-0.265
-0.27
-0.28
-0.295
-0.285
-0.27
-0.26
-0.27
-0.285
-0.29
-0.28
-0.27
-0.265
-0.27
-0.28
-0.29
-0.285
-0.275
-0.265
-0.27
-0.27
-0.28
-0.275
-0.275
-0.27
-0.275
-0.29
-0.3
-0.295
-0.285
-0.265
-0.275
-0.285
-0.295
-0.29
-0.295
-0.295
-0.285
-0.3
-0.305
-0.305
-0.295
-0.285
-0.295
-0.3
-0.31
-0.31
-0.3
-0.295
-0.3
-0.315
-0.33
-0.325
-0.315
-0.3
-0.305
-0.3
-0.32
-0.31
-0.31
-0.295
-0.305
-0.315
-0.32
-0.315
-0.315
-0.305
-0.305
-0.305
-0.32
-0.315
-0.315
-0.31
-0.3
-0.315
-0.315
-0.32
-0.31
-0.31
-0.3
-0.305
-0.315
-0.315
-0.3
-0.295
-0.3
-0.305
-0.315
-0.315
-0.3
-0.31
-0.305
-0.31
-0.325
-0.315
-0.315
-0.3
-0.285
-0.3
-0.29
-0.285
-0.26
-0.24
-0.255
-0.25
-0.26
-0.25
-0.225
-0.22
-0.215
-0.21
-0.215
-0.205
-0.19
-0.175
-0.185
-0.195
-0.2
-0.21
-0.21
-0.2
-0.2
-0.205
-0.225
-0.22
-0.22
-0.195
-0.185
-0.195
-0.215
-0.235
-0.245
-0.245
-0.26
-0.285
-0.3
-0.3
-0.295
-0.295
-0.295
-0.305
-0.31
-0.305
-0.305
-0.3
-0.3
-0.305
-0.32
-0.31
-0.305
-0.29
-0.305
-0.3
-0.32
-0.32
-0.305
-0.31
-0.315
-0.315
-0.32
-0.32
-0.315
-0.315
-0.305
-0.32
-0.35
-0.37
-0.39
-0.41
-0.43
-0.475
-0.505
-0.49
-0.405
-0.28
-0.145
0
0.215
0.47
0.705
0.875
0.925
0.81
0.545
0.18
-0.135
-0.33
-0.4
-0.425
-0.39
-0.35
-0.33
-0.325
-0.315
-0.325
-0.335
-0.33
-0.32
-0.32
-0.32
-0.33
-0.34
-0.34
-0.33
-0.32
-0.32
-0.325
-0.34
-0.34
-0.33
-0.335
-0.325
-0.33
-0.34
-0.335
-0.34
-0.315
-0.315
-0.325
-0.33
-0.325
-0.32
-0.31
-0.315
-0.32
-0.335
-0.335
-0.325
-0.325
-0.315
-0.33
-0.33
-0.33
-0.32
-0.315
-0.32
-0.32
-0.325
-0.325
-0.32
-0.305
-0.315
-0.32
-0.32
-0.32
-0.315
-0.305
-0.31
-0.325
-0.33
-0.325
-0.32
-0.31
-0.325
-0.32
-0.33
-0.335
-0.32
-0.325
-0.32
-0.325
-0.335
-0.34
-0.33
-0.32
-0.32
-0.335
-0.35
-0.335
-0.335
-0.335
-0.34
-0.35
-0.355
-0.36
-0.355
-0.345
-0.34
-0.36
-0.37
-0.37
-0.36
-0.365
-0.365
-0.365
-0.375
-0.38
-0.365
-0.36
-0.365
-0.365
-0.355
-0.345
-0.33
-0.32
-0.315
-0.31
-0.305
-0.295
-0.28
-0.265
-0.25
-0.26
-0.255
-0.265
-0.25
-0.235
-0.23
-0.23
-0.24
-0.24
-0.23
-0.22
-0.215
-0.225
-0.235
-0.225
-0.235
-0.215
-0.225
-0.235
-0.245
-0.245
-0.24
-0.225
-0.23
-0.235
-0.25
-0.25
-0.245
-0.23
-0.23
-0.245
-0.255
-0.25
-0.25
-0.23
-0.24
-0.24
-0.245
-0.245
-0.235
-0.24
-0.235
-0.245
-0.255
-0.25
-0.245
-0.245
-0.24
-0.255
-0.275
-0.275
-0.26
-0.27
-0.265
-0.265
-0.275
-0.275
-0.265
-0.265
-0.265
-0.275
-0.285
-0.275
-0.285
-0.265
-0.265
-0.265
-0.275
-0.285
-0.27
-0.27
-0.27
-0.265
-0.28
-0.27
-0.27
-0.27
-0.265
-0.275
-0.285
-0.28
-0.275
-0.275
-0.275
-0.29
-0.295
-0.3
-0.285
-0.275
-0.28
-0.28
-0.295
-0.3
-0.29
-0.28
-0.27
-0.285
-0.3
-0.29
-0.28
-0.27
-0.265
-0.275
-0.285
-0.285
-0.265
-0.26
-0.265
-0.285
-0.285
-0.28
-0.26
-0.245
-0.235
-0.225
-0.225
-0.22
-0.22
-0.2
-0.205
-0.21
-0.215
-0.2
-0.18
-0.185
-0.175
-0.18
-0.18
-0.175
-0.16
-0.155
-0.155
-0.185
-0.195
-0.195
-0.195
-0.18
-0.19
-0.195
-0.21
-0.205
-0.17
-0.15
-0.17
-0.2
-0.245
-0.255
-0.255
-0.25
-0.255
-0.28
-0.305
-0.31
-0.3
-0.295
-0.3
-0.31
-0.31
-0.315
-0.31
-0.31
-0.315
-0.32
-0.32
-0.32
-0.31
-0.305
-0.315
-0.32
-0.32
-0.32
-0.31
-0.315
-0.31
-0.33
-0.37
-0.41
-0.42
-0.425
-0.44
-0.485
-0.53
-0.54
-0.46
-0.34
-0.2
-0.075
0.09
0.335
0.61
0.835
0.97
1.035
0.98
0.755
0.4
0.04
-0.26
-0.415
-0.45
-0.41
-0.355
-0.32
-0.33
-0.35
-0.36
-0.35
-0.345
-0.35
-0.345
-0.35
-0.375
-0.36
-0.37
-0.355
-0.35
-0.365
-0.37
-0.375
-0.36
-0.36
-0.355
-0.36
-0.37
-0.36
-0.35
-0.355
-0.35
-0.36
-0.375
-0.37
-0.355
-0.345
-0.35
-0.36
-0.37
-0.37
-0.37
-0.355
-0.35
-0.365
-0.375
-0.36
-0.37
-0.355
-0.345
-0.355
-0.36
-0.37
-0.35
-0.345
-0.345
-0.355
-0.365
-0.36
-0.35
-0.345
-0.355
-0.35
-0.365
-0.37
-0.355
-0.355
-0.36
-0.36
-0.365
-0.355
-0.355
-0.35
-0.35
-0.36
-0.38
-0.375
-0.365
-0.35
-0.355
-0.36
-0.36
-0.37
-0.365
-0.36
-0.355
-0.365
-0.375
-0.39
-0.375
-0.365
-0.375
-0.37
-0.375
-0.38
-0.38
-0.365
-0.36
-0.36
-0.35
-0.35
-0.335
-0.32
-0.32
-0.305
-0.295
-0.305
-0.28
-0.26
-0.26
-0.255
-0.26
-0.27
-0.25
-0.245
-0.25
-0.26
-0.27
-0.26
-0.255
-0.25
-0.26
-0.265
-0.27
-0.275
-0.26
-0.25
-0.255
-0.27
-0.27
-0.27
-0.26
-0.255
-0.255
-0.265
-0.27
-0.27
-0.275
-0.265
-0.26
-0.265
-0.28
-0.28
-0.27
-0.265
-0.275
-0.275
-0.285
-0.285
-0.28
-0.275
-0.28
-0.29
-0.295
-0.295
-0.28
-0.28
-0.29
-0.29
-0.3
-0.295
-0.285
-0.275
-0.28
-0.285
-0.305
-0.29
-0.3
-0.3
-0.295
-0.305
-0.31
-0.31
-0.3
-0.295
-0.29
-0.31
-0.31
-0.32
-0.305
-0.3
-0.295
-0.3
-0.31
-0.305
-0.3
-0.285
-0.29
-0.305
-0.31
-0.315
-0.305
-0.3
-0.29
-0.29
-0.3
-0.305
-0.31
-0.285
-0.285
-0.29
-0.305
-0.305
-0.295
-0.285
-0.285
-0.29
-0.305
-0.3
-0.295
-0.28
-0.28
-0.285
-0.28
-0.27
-0.25
-0.23
-0.225
-0.225
-0.24
-0.235
-0.21
-0.185
-0.185
-0.19
-0.185
-0.195
-0.18
-0.175
-0.185
-0.2
-0.215
-0.215
-0.205
-0.195
-0.205
-0.22
-0.215
-0.2
-0.175
-0.18
-0.2
-0.23
-0.265
-0.265
-0.275
-0.28
-0.29
-0.315
-0.32
-0.325
-0.31
-0.305
-0.31
-0.31
-0.325
-0.325
-0.315
-0.31
-0.315
-0.32
-0.32
-0.33
-0.335
-0.315
-0.32
-0.325
-0.33
-0.33
-0.33
-0.32
-0.33
-0.335
-0.35
-0.37
-0.405
-0.435
-0.44
-0.5
-0.54
-0.54
-0.46
-0.315
-0.16
0
0.24
0.52
0.755
0.87
0.82
0.585
0.205
-0.18
-0.415
-0.45
-0.42
-0.385
-0.37
-0.365
-0.355
-0.335
-0.345
-0.34
-0.36
-0.36
-0.35
-0.355
-0.36
-0.365
-0.37
-0.37
-0.365
-0.355
-0.36
-0.365
-0.375
-0.375
-0.365
-0.345
-0.37
-0.375
-0.37
-0.375
-0.365
-0.35
-0.345
-0.345
-0.35
-0.36
-0.36
-0.355
-0.36
-0.355
-0.365
-0.375
-0.36
-0.35
-0.365
-0.35
-0.36
-0.385
-0.365
-0.35
-0.345
-0.36
-0.385
-0.38
-0.37
-0.36
-0.355
-0.35
-0.36
-0.355
-0.34
-0.33
-0.34
-0.345
-0.35
-0.36
-0.355
-0.355
-0.35
-0.365
-0.37
-0.38
-0.36
-0.355
-0.36
-0.375
-0.37
-0.375
-0.365
-0.37
-0.37
-0.375
-0.39
-0.385
-0.38
-0.36
-0.365
-0.37
-0.375
-0.39
-0.37
-0.355
-0.37
-0.375
-0.37
-0.375
-0.355
-0.34
-0.34
-0.335
-0.33
-0.32
-0.31
-0.305
-0.31
-0.305
-0.31
-0.305
-0.28
-0.27
-0.28
-0.27
-0.275
-0.285
-0.29
-0.285
-0.3
-0.285
-0.295
-0.305
-0.3
-0.3
-0.3
-0.305
-0.32
-0.315
-0.3
-0.275
-0.295
-0.305
-0.315
-0.315
-0.305
-0.305
-0.315
-0.315
-0.32
-0.315
-0.325
-0.31
-0.325
-0.325
-0.325
-0.325
-0.325
-0.315
-0.33
-0.345
-0.35
-0.355
-0.345
-0.32
-0.335
-0.335
-0.335
-0.345
-0.335
-0.33
-0.335
-0.34
-0.355
-0.355
-0.355
-0.33
-0.335
-0.345
-0.35
-0.345
-0.35
-0.34
-0.35
-0.36
-0.36
-0.36
-0.345
-0.34
-0.34
-0.34
-0.345
-0.35
-0.345
-0.335
-0.34
-0.355
-0.36
-0.36
-0.335
-0.34
-0.335
-0.34
-0.35
-0.36
-0.35
-0.34
-0.34
-0.35
-0.335
-0.32
-0.305
-0.29
-0.295
-0.295
-0.29
-0.285
-0.27
-0.265
-0.25
-0.245
-0.25
-0.245
-0.235
-0.22
-0.235
-0.235
-0.245
-0.245
-0.255
-0.245
-0.26
-0.265
-0.275
-0.295
-0.285
-0.255
-0.245
-0.25
-0.27
-0.3
-0.305
-0.315
-0.34
-0.35
-0.36
-0.37
-0.36
-0.355
-0.36
-0.37
-0.385
-0.38
-0.365
-0.365
-0.37
-0.375
-0.385
-0.385
-0.39
-0.39
-0.37
-0.37
-0.395
-0.4
-0.38
-0.38
-0.375
-0.39
-0.4
-0.41
-0.42
-0.44
-0.47
-0.5
-0.535
-0.575
-0.58
-0.5
-0.39
-0.26
-0.105
0.115
0.405
0.665
0.835
0.855
0.675
0.29
-0.105
-0.375
-0.485
-0.51
-0.48
-0.45
-0.42
-0.415
-0.415
-0.415
-0.42
-0.43
-0.41
-0.39
-0.4
-0.41
-0.405
-0.415
-0.405
-0.405
-0.405
-0.41
-0.42
-0.42
-0.42
-0.4
-0.405
-0.42
-0.415
-0.415
-0.415
-0.4
-0.41
-0.42
-0.425
-0.435
-0.41
-0.4
-0.39
-0.41
-0.42
-0.425
-0.41
-0.4
-0.405
-0.425
-0.415
-0.42
-0.42
-0.415
-0.405
-0.415
-0.41
-0.41
-0.405
-0.405
-0.41
-0.42
-0.425
-0.415
-0.405
-0.395
-0.39
-0.405
-0.415
-0.415
-0.395
-0.39
-0.385
-0.4
-0.415
-0.42
-0.425
-0.405
-0.415
-0.435
-0.44
-0.435
-0.435
-0.43
-0.43
-0.47
-0.47
-0.47
-0.455
-0.445
-0.46
-0.46
-0.465
-0.48
-0.47
-0.46
-0.45
-0.46
-0.465
-0.44
-0.42
-0.41
-0.395
-0.385
-0.38
-0.375
-0.365
-0.34
-0.355
-0.345
-0.345
-0.33
-0.335
-0.315
-0.315
-0.32
-0.315
-0.32
-0.31
-0.305
-0.31
-0.315
-0.31
-0.325
-0.315
-0.3
-0.3
-0.305
